  time (s)              T(t) (K)              P(t) (Pa)           Kinetic En. (n.u.)     Potential En. (n.u.) Total En. (n.u.)
  0.0000e+00           99.81933075            0.00000000        2276.04512223       -21170.81630336       -18894.77118114 
  5.0000e-15           99.41892172            0.00000000        2266.91513681       -21152.55399188       -18885.63885507 
  1.0000e-14           98.75402310            0.00000000        2251.75435347       -21122.22805330       -18870.47369983 
  1.5000e-14           97.82735872            0.00000000        2230.62487956       -21079.96209896       -18849.33721940 
  2.0000e-14           96.64301876            0.00000000        2203.61997800       -21025.94181558       -18822.32183758 
  2.5000e-14           95.20672169            0.00000000        2170.87003949       -20960.42691739       -18789.55687790 
  3.0000e-14           93.52614550            0.00000000        2132.55013482       -20883.76626797       -18751.21613316 
  3.5000e-14           91.61132122            0.00000000        2088.88898801       -20796.41585988       -18707.52687187 
  4.0000e-14           89.47507642            0.00000000        2040.17908863       -20698.95909597       -18658.78000734 
  4.5000e-14           87.13350848            0.00000000        1986.78748364       -20592.12846224       -18605.34097860 
  5.0000e-14           84.60645716            0.00000000        1929.16655200       -20476.82720658       -18547.66065458 
  5.5000e-14           81.91793308            0.00000000        1867.86377555       -20354.14905492       -18486.28527937 
  6.0000e-14           79.09644512            0.00000000        1803.52920363       -20225.39335735       -18421.86415372 
  6.5000e-14           76.17515704            0.00000000        1736.91902462       -20092.07247500       -18355.15345039 
  7.0000e-14           73.19179662            0.00000000        1668.89349410       -19955.90787570       -18287.01438160 
  7.5000e-14           70.18824380            0.00000000        1600.40754364       -19818.81153766       -18218.40399402 
  8.0000e-14           67.20974290            0.00000000        1532.49281816       -19682.85009918       -18150.35728102 
  8.5000e-14           64.30372057            0.00000000        1466.23072339       -19550.19086476       -18083.96014137 
  9.0000e-14           61.51824331            0.00000000        1402.71725492       -19423.03118510       -18020.31393018 
  9.5000e-14           58.90020768            0.00000000        1343.02173112       -19303.51547465       -17960.49374353 
  1.0000e-13           56.49340868            0.00000000        1288.14275052       -19193.64657513       -17905.50382461 
  1.0500e-13           54.33666347            0.00000000        1238.96540789       -19095.19963296       -17856.23422507 
  1.1000e-13           52.46216762            0.00000000        1196.22381576       -19009.64668453       -17813.42286877 
  1.1500e-13           50.89423105            0.00000000        1160.47227973       -18938.09871746       -17777.62643773 
  1.2000e-13           49.64848726            0.00000000        1132.06726990       -18881.26951764       -17749.20224773 
  1.2500e-13           48.73160887            0.00000000        1111.16093279       -18839.46277261       -17728.30183982 
  1.3000e-13           48.14150554            0.00000000        1097.70560498       -18812.58130818       -17714.87570320 
  1.3500e-13           47.86793841            0.00000000        1091.46782394       -18800.15539414       -17708.68757020 
  1.4000e-13           47.89345989            0.00000000        1092.04975583       -18801.38590870       -17709.33615288 
  1.4500e-13           48.19457817            0.00000000        1098.91574836       -18815.19774032       -17716.28199196 
  1.5000e-13           48.74304907            0.00000000        1111.42178805       -18840.29896041       -17728.87717236 
  1.5500e-13           49.50720921            0.00000000        1128.84589775       -18875.24182709       -17746.39592934 
  1.6000e-13           50.45327989            0.00000000        1150.41786725       -18918.48240183       -17768.06453458 
  1.6500e-13           51.54658815            0.00000000        1175.34709597       -18968.43634029       -17793.08924432 
  1.7000e-13           52.75266769            0.00000000        1202.84769557       -19023.52916022       -17820.68146465 
  1.7500e-13           54.03821634            0.00000000        1232.16032198       -19082.23993402       -17850.07961204 
  1.8000e-13           55.37189824            0.00000000        1262.57046551       -19143.13787250       -17880.56740699 
  1.8500e-13           56.72498719            0.00000000        1293.42312179       -19204.91165380       -17911.48853201 
  1.9000e-13           58.07185387            0.00000000        1324.13390022       -19266.39161740       -17942.25771717 
  1.9500e-13           59.39030303            0.00000000        1354.19671211       -19326.56511185       -17972.36839973 
  2.0000e-13           60.66176918            0.00000000        1383.18823424       -19384.58538978       -18001.39715554 
  2.0500e-13           61.87138137            0.00000000        1410.76938416       -19439.77452169       -18029.00513754 
  2.1000e-13           63.00790907            0.00000000        1436.68408740       -19491.62088679       -18054.93679939 
  2.1500e-13           64.06360417            0.00000000        1460.75567412       -19539.77191391       -18079.01623978 
  2.2000e-13           65.03395679            0.00000000        1482.88131169       -19584.02288560       -18101.14157391 
  2.2500e-13           65.91738562            0.00000000        1503.02494401       -19624.30275079       -18121.27780678 
  2.3000e-13           66.71488505            0.00000000        1521.20924417       -19660.65796604       -18139.44872187 
  2.3500e-13           67.42965037            0.00000000        1537.50707064       -19693.23535470       -18155.72828406 
  2.4000e-13           68.06669959            0.00000000        1552.03284198       -19722.26481975       -18170.23197778 
  2.4500e-13           68.63250441            0.00000000        1564.93412355       -19748.04249960       -18183.10837604 
  2.5000e-13           69.13463764            0.00000000        1576.38358804       -19770.91468572       -18194.53109768 
  2.5500e-13           69.58143942            0.00000000        1586.57140447       -19791.26260462       -18204.69120014 
  2.6000e-13           69.98170233            0.00000000        1595.69805789       -19809.48805953       -18213.79000163 
  2.6500e-13           70.34437556            0.00000000        1603.96760494       -19825.99993705       -18222.03233211 
  2.7000e-13           70.67829050            0.00000000        1611.58141531       -19841.20167676       -18229.62026145 
  2.7500e-13           70.99191220            0.00000000        1618.73250658       -19855.47992071       -18236.74741412 
  2.8000e-13           71.29312370            0.00000000        1625.60062478       -19869.19465202       -18243.59402724 
  2.8500e-13           71.58905028            0.00000000        1632.34823814       -19882.67116232       -18250.32292418 
  2.9000e-13           71.88593030            0.00000000        1639.11759146       -19896.19414712       -18257.07655565 
  2.9500e-13           72.18903676            0.00000000        1646.02891792       -19910.00412562       -18263.97520770 
  3.0000e-13           72.50265075            0.00000000        1653.17983343       -19924.29623659       -18271.11640317 
  3.0500e-13           72.83008436            0.00000000        1660.64585899       -19939.22130044       -18278.57544145 
  3.1000e-13           73.17374724            0.00000000        1668.48193851       -19954.88888098       -18286.40694247 
  3.1500e-13           73.53524814            0.00000000        1676.72475441       -19971.37194919       -18294.64719479 
  3.2000e-13           73.91552075            0.00000000        1685.39559609       -19988.71265592       -18303.31705983 
  3.2500e-13           74.31496188            0.00000000        1694.50351170       -20006.92867109       -18312.42515939 
  3.3000e-13           74.73357030            0.00000000        1704.04847305       -20026.01954628       -18321.97107322 
  3.3500e-13           75.17107533            0.00000000        1714.02430806       -20045.97260563       -18331.94829756 
  3.4000e-13           75.62704652            0.00000000        1724.42120226       -20066.76796606       -18342.34676381 
  3.4500e-13           76.10097879            0.00000000        1735.22763852       -20088.38242295       -18353.15478444 
  3.5000e-13           76.59235058            0.00000000        1746.43172430       -20110.79209954       -18364.36037524 
  3.5500e-13           77.10065654            0.00000000        1758.02193746       -20133.97392407       -18375.95198661 
  3.6000e-13           77.62541923            0.00000000        1769.98739085       -20157.90613886       -18387.91874801 
  3.6500e-13           78.16618570            0.00000000        1782.31775684       -20182.56812904       -18400.25037220 
  3.7000e-13           78.72251560            0.00000000        1795.00299478       -20207.93986284       -18412.93686806 
  3.7500e-13           79.29396519            0.00000000        1808.03298651       -20234.00115742       -18425.96817092 
  3.8000e-13           79.88006901            0.00000000        1821.39711869       -20260.73084895       -18439.33373026 
  3.8500e-13           80.48031787            0.00000000        1835.08378121       -20288.10580133       -18453.02202012 
  3.9000e-13           81.09412985            0.00000000        1849.07970519       -20316.09959426       -18467.01988906 
  3.9500e-13           81.72081095            0.00000000        1863.36906640       -20344.68073429       -18481.31166789 
  4.0000e-13           82.35950468            0.00000000        1877.93233519       -20373.81034566       -18495.87801046 
  4.0500e-13           83.00913369            0.00000000        1892.74494634       -20403.43948699       -18510.69454064 
  4.1000e-13           83.66834092            0.00000000        1907.77595688       -20433.50643554       -18525.73047866 
  4.1500e-13           84.33544018            0.00000000        1922.98691845       -20463.93440104       -18540.94748259 
  4.2000e-13           85.00838573            0.00000000        1938.33118518       -20494.63012047       -18556.29893529 
  4.2500e-13           85.68476777            0.00000000        1953.75380963       -20525.48364377       -18571.72983414 
  4.3000e-13           86.36183580     88434243.41930319        1969.19207576       -20556.36940705       -18587.17733129 
  4.3500e-13           87.03757511            0.00000000        1984.60004471       -20587.19531411       -18602.59526939 
  4.4000e-13           87.70765595            0.00000000        1999.87899130       -20617.76368916       -18617.88469786 
  4.4500e-13           88.36869863            0.00000000        2014.95185297       -20647.92010862       -18632.96825565 
  4.5000e-13           89.01730096            0.00000000        2029.74105428       -20677.50906732       -18647.76801303 
  4.5500e-13           89.65016338            0.00000000        2044.17135970       -20706.37967886       -18662.20831916 
  4.6000e-13           90.26423218            0.00000000        2058.17313959       -20734.39221458       -18676.21907499 
  4.6500e-13           90.85685708            0.00000000        2071.68596318       -20761.42532036       -18689.73935718 
  4.7000e-13           91.42595180            0.00000000        2084.66225989       -20787.38340179       -18702.72114189 
  4.7500e-13           91.97013683     69814720.98949702        2097.07057491       -20812.20322648       -18715.13265157 
  4.8000e-13           92.49085218            0.00000000        2108.94374237       -20835.95038777       -18727.00664541 
  4.8500e-13           92.98626021            0.00000000        2120.23986120       -20858.54130456       -18738.30144335 
  4.9000e-13           93.45733176     73040430.54580927        2130.98106833       -20880.02083660       -18749.03976827 
  4.9500e-13           93.90720386            0.00000000        2141.23889311       -20900.53290960       -18759.29401649 
  5.0000e-13           94.33598631     64247130.78073712        2151.01583897       -20920.08351781       -18769.06767885 
  5.0500e-13           94.74666254    107753136.99466874        2160.37993337       -20938.80963040       -18778.42969703 
  5.1000e-13           95.13856609            0.00000000        2169.31597957       -20956.68138632       -18787.36540675 
  5.1500e-13           95.51261001            0.00000000        2177.84479694       -20973.74042063       -18795.89562369 
  5.2000e-13           95.86904102            0.00000000        2185.97201104       -20989.99763252       -18804.02562149 
  5.2500e-13           96.20767284     78472094.52118868        2193.69337424       -21005.44390647       -18811.75053223 
  5.3000e-13           96.52900997            0.00000000        2201.02038990       -21020.10183849       -18819.08144859 
  5.3500e-13           96.83116231            0.00000000        2207.90996093       -21033.88436606       -18825.97440513 
  5.4000e-13           97.11380645     98695805.98422483        2214.35471276       -21046.77630232       -18832.42158955 
  5.4500e-13           97.37908117            0.00000000        2220.40341309       -21058.87499583       -18838.47158274 
  5.5000e-13           97.62527802            0.00000000        2226.01710673       -21070.10241295       -18844.08530622 
  5.5500e-13           97.85325152     88766427.79865618        2231.21527807       -21080.49759683       -18849.28231876 
  5.6000e-13           98.06188188     70738080.71920878        2235.97239380       -21090.00956217       -18854.03716838 
  5.6500e-13           98.25711865            0.00000000        2240.42411373       -21098.91001600       -18858.48590227 
  5.7000e-13           98.43910917            0.00000000        2244.57379729       -21107.20596703       -18862.63216975 
  5.7500e-13           98.60991680            0.00000000        2248.46849254       -21114.99179276       -18866.52330022 
  5.8000e-13           98.77165422            0.00000000        2252.15637205       -21122.36406443       -18870.20769238 
  5.8500e-13           98.92639842     54719537.10001950        2255.68479463       -21129.41765173       -18873.73285709 
  5.9000e-13           99.07728616     94133261.71894465        2259.12528345       -21136.29569507       -18877.17041163 
  5.9500e-13           99.22263637     92917415.67576024        2262.43950772       -21142.92183488       -18880.48232717 
  6.0000e-13           99.36522959            0.00000000        2265.69086783       -21149.42286334       -18883.73199552 
  6.0500e-13           99.50685319            0.00000000        2268.92011929       -21155.88041209       -18886.96029280 
  6.1000e-13           99.64854981            0.00000000        2272.15103539       -21162.34235290       -18890.19131751 
  6.1500e-13           99.79094608            0.00000000        2275.39790488       -21168.83766048       -18893.43975560 
  6.2000e-13           99.93412698     83142232.01608783        2278.66266524       -21175.37058894       -18896.70792369 
  6.2500e-13          100.08152193            0.00000000        2282.02351286       -21182.09780315       -18900.07429029 
  6.3000e-13          100.22791170            0.00000000        2285.36144060       -21188.78128419       -18903.41984360 
  6.3500e-13          100.37126747            0.00000000        2288.63018828       -21195.32825465       -18906.69806637 
  6.4000e-13          100.50893118            0.00000000        2291.76914745       -21201.61697743       -18909.84782998 
  6.4500e-13          100.63779397    194187752.59428084        2294.70743136       -21207.50496296       -18912.79753159 
  6.5000e-13          100.76136005     94593666.00058167        2297.52494155       -21213.15125827       -18915.62631672 
  6.5500e-13          100.86992663    147998400.47833854        2300.00043836       -21218.11256044       -18918.11212208 
  6.6000e-13          100.96375805            0.00000000        2302.13994914       -21222.40023524       -18920.26028610 
  6.6500e-13          101.03636552     68304309.45484462        2303.79551902       -21225.71778286       -18921.92226385 
  6.7000e-13          101.08925756    142318427.57982790        2305.00154475       -21228.13369538       -18923.13215064 
  6.7500e-13          101.12135583            0.00000000        2305.73343823       -21229.59885629       -18923.86541806 
  6.8000e-13          101.12963904            0.00000000        2305.92230901       -21229.97542732       -18924.05311831 
  6.8500e-13          101.11508666            0.00000000        2305.59049068       -21229.30836206       -18923.71787138 
  6.9000e-13          101.07945735            0.00000000        2304.77808374       -21227.67827847       -18922.90019473 
  6.9500e-13          101.02515132            0.00000000        2303.53981691       -21225.19513062       -18921.65531371 
  7.0000e-13          100.95504416     33960232.51229125        2301.94125827       -21221.99058231       -18920.04932405 
  7.0500e-13          100.87380934            0.00000000        2300.08897055       -21218.27828346       -18918.18931291 
  7.1000e-13          100.78323022    100534005.79619402        2298.02361732       -21214.14003746       -18916.11642015 
  7.1500e-13          100.68815471            0.00000000        2295.85573915       -21209.79746360       -18913.94172445 
  7.2000e-13          100.58978479            0.00000000        2293.61274301       -21205.30565873       -18911.69291572 
  7.2500e-13          100.49079797     65904548.49353000        2291.35568052       -21200.78705524       -18909.43137471 
  7.3000e-13          100.39586053            0.00000000        2289.19095046       -21196.45476258       -18907.26381213 
  7.3500e-13          100.30415871     43377602.19895050        2287.09999793       -21192.27183481       -18905.17183688 
  7.4000e-13          100.21798353            0.00000000        2285.13506197       -21188.34289713       -18903.20783516 
  7.4500e-13          100.13635119            0.00000000        2283.27371031       -21184.62298412       -18901.34927381 
  7.5000e-13          100.05902383    189610965.10792154        2281.51051915       -21181.10103122       -18899.59051207 
  7.5500e-13           99.99064513            0.00000000        2279.95137203       -21177.98849626       -18898.03712423 
  7.6000e-13           99.92457264    272767608.61234790        2278.44481044       -21174.98190057       -18896.53709013 
  7.6500e-13           99.86904265     61536187.09873422        2277.17863525       -21172.45657454       -18895.27793929 
  7.7000e-13           99.81471847     55422539.22112996        2275.93995462       -21169.98602675       -18894.04607212 
  7.7500e-13           99.76003069            0.00000000        2274.69298322       -21167.49833475       -18892.80535153 
  7.8000e-13           99.70092031    129771853.94253890        2273.34516909       -21164.80823446       -18891.46306536 
  7.8500e-13           99.63417188     56498335.42979972        2271.82319499       -21161.76968078       -18889.94648579 
  7.9000e-13           99.56175236            0.00000000        2270.17191056       -21158.47191133       -18888.30000078 
  7.9500e-13           99.48034193     36442193.60166325        2268.31561869       -21154.76349203       -18886.44787334 
  8.0000e-13           99.39009426            0.00000000        2266.25782324       -21150.65126060       -18884.39343736 
